(title "Velocity Magnitude")
(labels "Position" "Velocity Magnitude")

((xy/key/label "x50_z_profile")
-100	0.185068
-99.979	0.18514
-99.6093	0.186419
-99.5988	0.186424
-98.7873	0.178635
-98.758	0.178317
-98.7413	0.178289
-98.393	0.177699
-97.7684	0.16604
-97.403	0.157272
-97.2493	0.153012
-96.9594	0.14498
-96.2943	0.125197
-96.1883	0.122756
-95.9933	0.118265
-95.7261	0.110767
-94.9207	0.0924793
-94.8842	0.0916631
-94.6153	0.0856404
-94.4762	0.0829939
-94.2538	0.078755
-93.6136	0.0665912
-93.3343	0.0613184
-93.2468	0.0596671
-93.0038	0.0562945
-92.7669	0.0537269
-92.5221	0.0510752
-92.1755	0.0469933
-91.5125	0.0432286
-91.3978	0.0430133
-91.2078	0.0426565
-90.864	0.0409154
-90.5036	0.0390375
-90.1059	0.0372281
-89.9998	0.0361264
-89.8781	0.0348616
-89.7429	0.0342672
-89.6604	0.0339047
-89.3883	0.032341
-89.0305	0.0311914
-88.9071	0.0307946
-88.3946	0.0281487
-88.1674	0.0269429
-87.5777	0.0241151
-87.517	0.0238391
-87.1215	0.0211907
-87.0891	0.0209737
-86.9584	0.02026
-86.2966	0.0168463
-85.9544	0.0152939
-85.827	0.0146296
-85.6219	0.01356
-85.0815	0.0109715
-84.4968	0.00787288
-84.1623	0.00657437
-84.0662	0.00620137
-83.948	0.00567295
-83.8682	0.0053649
-83.6058	0.00456912
-83.6058	0.00456912
-83.1731	0.00316181
-83.1392	0.00304414
-83.0429	0.00270968
-82.8241	0.00206596
-82.1109	0.00120752
-82.0675	0.00116175
-81.8463	0.00112441
-81.8209	0.00112013
-81.68	0.00111212
-81.1662	0.000995139
-81.1043	0.000987305
-80.9461	0.000967298
-80.8768	0.000980362
-80.7322	0.00100763
-79.8887	0.00107002
-79.8885	0.00107003
-79.8884	0.00107004
-79.3615	0.00106566
-78.9963	0.00106263
-78.591	0.00108684
-78.5427	0.00109645
-78.3733	0.00113019
-77.8502	0.00111285
-77.8502	0.00111285
-77.5952	0.0010928
-77.4896	0.00111191
-77.4092	0.00110815
-77.2415	0.0011003
-76.6855	0.00111692
-76.5201	0.00111397
-76.3832	0.00111153
-75.7171	0.00112796
-75.5799	0.00112872
-75.4875	0.00112924
-75.365	0.00112253
-75.1334	0.00110997
-75.0723	0.00110666
-74.3206	0.00112348
-74.1022	0.00112888
-74.0827	0.00113022
-74.045	0.00113283
-73.8037	0.00113417
-73.7551	0.00113562
-73.7455	0.00113538
-73.7387	0.0011352
-72.927	0.00107977
-72.5952	0.00107196
-72.269	0.00107184
-72.0876	0.0010498
-71.891	0.00102591
-71.4017	0.000996795
-71.2614	0.000995822
-71.0514	0.000994366
-70.9299	0.000978699
-70.3663	0.00097519
-69.9503	0.000981774
-69.6862	0.00104021
-69.5526	0.00106124
-69.3728	0.00103452
-69.0379	0.000984757
-68.7354	0.000931039
-68.7286	0.000931002
-68.7218	0.000930922
-67.8551	0.00090237
-67.7807	0.000901398
-67.7018	0.000905787
-67.0416	0.000942486
-66.4492	0.000910134
-66.3683	0.000906913
-66.1069	0.000902131
-65.7806	0.000904544
-65.2842	0.000837462
-65.2076	0.000827331
-64.6543	0.000816927
-64.2165	0.000808694
-64.1443	0.000804251
-63.1264	0.000791422
-62.9474	0.000789166
-62.9335	0.00078814
-62.9089	0.000787575
-62.4778	0.000781303
-62.3847	0.000779949
-61.4895	0.000755967
-60.866	0.000767497
-60.7469	0.000783906
-60.5637	0.00080914
-60.5229	0.000805769
-60.081	0.000749819
-59.9365	0.000760315
-59.8311	0.000767968
-59.3878	0.0007301
-59.2326	0.00071819
-59.0279	0.000702484
-58.8445	0.00068583
-58.6215	0.00068363
-57.914	0.000682497
-57.6876	0.000679296
-57.4788	0.000676343
-56.8768	0.00067858
-56.5771	0.000671391
-56.336	0.000678813
-56.2033	0.000670027
-56.0792	0.000671777
-55.4552	0.000645849
-55.373	0.000635902
-55.212	0.000616431
-54.9103	0.00061247
-54.3413	0.000610687
-54.1521	0.000615632
-53.985	0.000619997
-53.4976	0.000611081
-53.1681	0.000613953
-53.0637	0.000600827
-52.8812	0.000577882
-52.2929	0.000582157
-52.1949	0.000590821
-52.009	0.000607248
-51.9618	0.000606741
-51.9273	0.000608089
-51.4575	0.000626466
-51.4145	0.000627815
-51.4121	0.000628056
-51.4103	0.000628209
-51.4069	0.000628074
-50.9395	0.000609425
-50.8019	0.000590097
-50.4197	0.000583302
-50.3595	0.000580074
-49.7586	0.000556139
-49.6533	0.000554875
-48.9623	0.000561977
-48.8765	0.000562449
-48.8669	0.000561083
-48.4764	0.00052748
-48.3852	0.000529707
-48.1726	0.000525337
-47.3622	0.000508684
-46.8344	0.000510764
-46.3553	0.000512653
-46.2509	0.000506543
-46.1694	0.000496851
-46.1446	0.000493906
-45.9588	0.000505531
-45.9586	0.000505543
-45.957	0.000505543
-45.0671	0.000492359
-44.9376	0.000484993
-44.8118	0.000477836
-44.0726	0.000469207
-43.8388	0.000469464
-43.5829	0.000469045
-43.4974	0.000467321
-43.4678	0.000466723
-43.344	0.000464985
-42.3747	0.000452708
-42.2702	0.000455447
-42.0594	0.000466822
-41.8898	0.000467005
-41.736	0.000467171
-41.387	0.000465633
-40.958	0.000457203
-40.7457	0.000452375
-40.1428	0.000443945
-40.0086	0.000440116
-39.734	0.000432285
-39.6581	0.000425257
-39.2865	0.000414186
-38.8685	0.000415626
-38.6701	0.000419845
-38.5303	0.000422816
-38.1646	0.000425422
-38.0502	0.000422698
-37.9074	0.000419296
-37.5019	0.000426779
-36.8684	0.000423575
-36.6648	0.000423461
-36.4851	0.000419383
-36.2765	0.000417018
-35.8463	0.000412143
-35.4365	0.000399433
-34.7574	0.000392608
-34.6609	0.000391637
-34.6429	0.000391695
-34.5529	0.000391986
-34.2368	0.000393515
-34.1697	0.000393839
-33.6097	0.000390126
-33.3866	0.000388298
-33.3422	0.000388478
-33.3247	0.000387868
-33.019	0.000377193
-32.8669	0.000374359
-32.0514	0.000361037
-31.9383	0.000360577
-31.8492	0.000360216
-31.2174	0.000356816
-31.1768	0.000356596
-31.1603	0.000356462
-30.8246	0.000353726
-30.2124	0.000332928
-29.9556	0.000331331
-29.4586	0.000336595
-29.1077	0.000341763
-28.866	0.00033257
-28.8357	0.000331417
-28.7409	0.000332929
-28.5174	0.000340149
-28.4351	0.000342811
-27.9319	0.00033744
-27.8368	0.000330185
-27.7042	0.000320064
-26.8888	0.000316465
-26.6236	0.00031658
-26.5717	0.000316793
-26.3673	0.000317635
-26.1555	0.000316988
-25.2433	0.000313178
-25.1874	0.000317141
-25.0386	0.000327687
-25.0152	0.000327652
-24.9607	0.000326539
-24.3998	0.000315084
-24.1363	0.000313669
-23.9676	0.000310081
-23.8261	0.000307071
-23.4274	0.000306509
-23.291	0.000307793
-23.1885	0.000308759
-22.988	0.000320773
-22.9088	0.000312276
-22.8645	0.000307528
-22.2148	0.000305088
-21.993	0.000307076
-21.7081	0.000311611
-21.5487	0.000314149
-20.9879	0.000308708
-20.7595	0.000306015
-20.4179	0.000310498
-20.3343	0.000311036
-19.7171	0.000310003
-19.3209	0.000313576
-19.1463	0.00030623
-18.9794	0.000299212
-18.5898	0.000298455
-17.8971	0.00028572
-17.7715	0.000283275
-17.7485	0.000282732
-17.5317	0.000277615
-17.4654	0.000276487
-17.4371	0.000276527
-17.4062	0.00027657
-16.6445	0.000284153
-16.562	0.000290045
-16.3969	0.000301829
-16.3789	0.00030242
-15.8304	0.000291698
-15.7865	0.00029084
-15.7842	0.000290722
-15.3882	0.000289938
-15.0789	0.000289326
-15.005	0.000286798
-14.6486	0.000285785
-14.1947	0.000284495
-14.0701	0.000282743
-13.9685	0.000279197
-13.9523	0.000278632
-13.8672	0.000279632
-13.8672	0.000279632
-13.37	0.000274577
-12.939	0.000270791
-12.7548	0.000269173
-12.5835	0.000270248
-12.4382	0.000272318
-12.408	0.000272749
-11.5925	0.00027251
-11.5373	0.000272511
-11.5297	0.00027245
-11.5268	0.000272387
-11.3311	0.000268144
-11.1647	0.000264601
-11.1552	0.00026455
-11.1358	0.000264445
-10.2566	0.000260917
-10.0774	0.000262035
-10.005	0.000262084
-9.78317	0.000262232
-9.16957	0.000250518
-8.95657	0.000252674
-8.82033	0.000257965
-8.51861	0.000269682
-8.17303	0.000273841
-7.93393	0.000271547
-7.77206	0.000269994
-7.01352	0.000265417
-6.83543	0.000266928
-6.66161	0.000268409
-6.38262	0.000266047
-6.21405	0.00026462
-5.6703	0.00026475
-5.11666	0.000259732
-4.87012	0.000259306
-4.82392	0.000259226
-4.73732	0.000259081
-4.70358	0.000258252
-4.67839	0.000257634
-3.97788	0.000264508
-3.83544	0.000266992
-3.70254	0.000266972
-3.5064	0.000263172
-3.44875	0.000261706
-3.41482	0.000260843
-2.47193	0.000261723
-2.37319	0.000262905
-2.12175	0.000265772
-2.05728	0.000266507
-1.48688	0.000263448
-1.17424	0.00026285
-1.00679	0.000268222
-0.786081	0.000274737
-0.324635	0.000288357
0	0.000300803
)
