(title "Velocity Magnitude")
(labels "Position" "Velocity Magnitude")

((xy/key/label "x50_z_profile")
-100	0.20904
-99.979	0.209144
-99.6093	0.210971
-99.5988	0.211005
-98.7873	0.200466
-98.758	0.19988
-98.7413	0.199615
-98.393	0.194078
-97.7684	0.173428
-97.403	0.158847
-97.2493	0.153077
-96.9594	0.142196
-96.2943	0.114447
-96.1883	0.110735
-95.9933	0.103907
-95.7261	0.0934994
-94.9207	0.0657392
-94.8842	0.064713
-94.6153	0.0571402
-94.4762	0.0525851
-94.2538	0.0473902
-93.6136	0.0314428
-93.3343	0.0260229
-93.2468	0.0243257
-93.0038	0.0207955
-92.7669	0.0181148
-92.5221	0.0153464
-92.1755	0.0113531
-91.5125	0.00641256
-91.3978	0.00598373
-91.2078	0.00527309
-90.864	0.00365839
-90.5036	0.0028986
-90.1059	0.00260841
-89.9998	0.00244011
-89.8781	0.00224689
-89.7429	0.00211886
-89.6604	0.0020408
-89.3883	0.00196154
-89.0305	0.00193105
-88.9071	0.00192053
-88.3946	0.00176224
-88.1674	0.00167443
-87.5777	0.00159318
-87.517	0.00159148
-87.1215	0.00148175
-87.0891	0.00147276
-86.9584	0.00147227
-86.2966	0.00143699
-85.9544	0.00147144
-85.827	0.0014683
-85.6219	0.00146325
-85.0815	0.00145988
-84.4968	0.00145774
-84.1623	0.00150474
-84.0662	0.00151824
-83.948	0.00152175
-83.8682	0.0015139
-83.6058	0.00150707
-83.6058	0.00150707
-83.1731	0.00147974
-83.1392	0.00147268
-83.0429	0.00145261
-82.8241	0.00141287
-82.1109	0.0014218
-82.0675	0.00141988
-81.8463	0.00141926
-81.8209	0.00141918
-81.68	0.00141922
-81.1662	0.00142399
-81.1043	0.00139588
-80.9461	0.0013241
-80.8768	0.00134228
-80.7322	0.00138021
-79.8887	0.00131948
-79.8885	0.00131947
-79.8884	0.00131946
-79.3615	0.00124156
-78.9963	0.00118756
-78.591	0.0011374
-78.5427	0.00114332
-78.3733	0.0011641
-77.8502	0.00110151
-77.8502	0.00110151
-77.5952	0.00105468
-77.4896	0.00106734
-77.4092	0.00106132
-77.2415	0.00104878
-76.6855	0.00104341
-76.5201	0.00103383
-76.3832	0.0010259
-75.7171	0.00100788
-75.5799	0.00100259
-75.4875	0.000999027
-75.365	0.000991131
-75.1334	0.000979922
-75.0723	0.000976964
-74.3206	0.000963515
-74.1022	0.000961054
-74.0827	0.000962495
-74.045	0.00096529
-73.8037	0.000966605
-73.7551	0.000968123
-73.7455	0.000967694
-73.7387	0.000967391
-72.927	0.00090837
-72.5952	0.000903015
-72.269	0.000903467
-72.0876	0.000882538
-71.891	0.000859848
-71.4017	0.000839797
-71.2614	0.00083867
-71.0514	0.000836984
-70.9299	0.000821859
-70.3663	0.000804133
-69.9503	0.000801946
-69.6862	0.000858226
-69.5526	0.000879294
-69.3728	0.000847045
-69.0379	0.000786979
-68.7354	0.00073136
-68.7286	0.000731273
-68.7218	0.000731081
-67.8551	0.000692175
-67.7807	0.000692866
-67.7018	0.000698035
-67.0416	0.000741255
-66.4492	0.000723574
-66.3683	0.000723417
-66.1069	0.000723589
-65.7806	0.000731514
-65.2842	0.000678466
-65.2076	0.000670128
-64.6543	0.00065841
-64.2165	0.000649137
-64.1443	0.000645292
-63.1264	0.000625215
-62.9474	0.000621684
-62.9335	0.000620711
-62.9089	0.000620472
-62.4778	0.000619318
-62.3847	0.000619069
-61.4895	0.000591936
-60.866	0.000608155
-60.7469	0.000623879
-60.5637	0.000648061
-60.5229	0.00064406
-60.081	0.000587635
-59.9365	0.000599649
-59.8311	0.000608408
-59.3878	0.000568361
-59.2326	0.000556762
-59.0279	0.000541468
-58.8445	0.000525659
-58.6215	0.000523956
-57.914	0.000526549
-57.6876	0.000525194
-57.4788	0.000523944
-56.8768	0.000523615
-56.5771	0.000512938
-56.336	0.000523366
-56.2033	0.000514698
-56.0792	0.000515639
-55.4552	0.000488461
-55.373	0.00047888
-55.212	0.000460125
-54.9103	0.000458891
-54.3413	0.00045676
-54.1521	0.000462276
-53.985	0.000467145
-53.4976	0.000461947
-53.1681	0.000463354
-53.0637	0.00044843
-52.8812	0.000422343
-52.2929	0.000425383
-52.1949	0.000437472
-52.009	0.000460392
-51.9618	0.000460588
-51.9273	0.000461978
-51.4575	0.000480912
-51.4145	0.000482272
-51.4121	0.000482568
-51.4103	0.000482719
-51.4069	0.000482681
-50.9395	0.000477455
-50.8019	0.000464933
-50.4197	0.000471091
-50.3595	0.000470305
-49.7586	0.000466016
-49.6533	0.000465659
-48.9623	0.000475885
-48.8765	0.000476944
-48.8669	0.000475212
-48.4764	0.000438041
-48.3852	0.000438019
-48.1726	0.0004285
-47.3622	0.000392231
-46.8344	0.000401042
-46.3553	0.000409038
-46.2509	0.000404657
-46.1694	0.000397029
-46.1446	0.000394711
-45.9588	0.000411695
-45.9586	0.000411714
-45.957	0.000411718
-45.0671	0.000404904
-44.9376	0.000397473
-44.8118	0.000390252
-44.0726	0.000387419
-43.8388	0.000390019
-43.5829	0.000390229
-43.4974	0.000388386
-43.4678	0.000387747
-43.344	0.000387364
-42.3747	0.000372668
-42.2702	0.000375621
-42.0594	0.000387054
-41.8898	0.000388306
-41.736	0.000389441
-41.387	0.000386036
-40.958	0.000374098
-40.7457	0.000370319
-40.1428	0.000362658
-40.0086	0.000359389
-39.734	0.000352704
-39.6581	0.000345571
-39.2865	0.000340498
-38.8685	0.000348456
-38.6701	0.000355849
-38.5303	0.000361057
-38.1646	0.000370158
-38.0502	0.00036844
-37.9074	0.000366293
-37.5019	0.000382241
-36.8684	0.000400646
-36.6648	0.000407116
-36.4851	0.000402383
-36.2765	0.000399806
-35.8463	0.000394494
-35.4365	0.000377388
-34.7574	0.000342091
-34.6609	0.000337037
-34.6429	0.000337073
-34.5529	0.000337256
-34.2368	0.000341602
-34.1697	0.000342525
-33.6097	0.000338172
-33.3866	0.000336015
-33.3422	0.000337789
-33.3247	0.000337542
-33.019	0.000333224
-32.8669	0.000331838
-32.0514	0.000332068
-31.9383	0.000331722
-31.8492	0.00033145
-31.2174	0.000328527
-31.1768	0.00032806
-31.1603	0.00032781
-30.8246	0.000322711
-30.2124	0.000297313
-29.9556	0.000297991
-29.4586	0.000306915
-29.1077	0.000315087
-28.866	0.000299418
-28.8357	0.000297453
-28.7409	0.000299175
-28.5174	0.000309131
-28.4351	0.000312801
-27.9319	0.000306579
-27.8368	0.00029657
-27.7042	0.000282607
-26.8888	0.000278546
-26.6236	0.000280583
-26.5717	0.000281372
-26.3673	0.000284481
-26.1555	0.00028392
-25.2433	0.000289873
-25.1874	0.000295882
-25.0386	0.000311873
-25.0152	0.000311737
-24.9607	0.000309888
-24.3998	0.000290858
-24.1363	0.00028931
-23.9676	0.00028767
-23.8261	0.000286295
-23.4274	0.000284598
-23.291	0.000286177
-23.1885	0.000287365
-22.988	0.000300237
-22.9088	0.000290642
-22.8645	0.000285281
-22.2148	0.000289658
-21.993	0.000295004
-21.7081	0.000297295
-21.5487	0.000298576
-20.9879	0.000278344
-20.7595	0.000269112
-20.4179	0.000266895
-20.3343	0.00026729
-19.7171	0.000268181
-19.3209	0.000279609
-19.1463	0.000275522
-18.9794	0.000271616
-18.5898	0.000274346
-17.8971	0.000265236
-17.7715	0.000262734
-17.7485	0.000262073
-17.5317	0.000255844
-17.4654	0.000254247
-17.4371	0.000254507
-17.4062	0.000254793
-16.6445	0.000270926
-16.562	0.0002785
-16.3969	0.00029365
-16.3789	0.000294632
-15.8304	0.000282588
-15.7865	0.000281624
-15.7842	0.000281485
-15.3882	0.000280241
-15.0789	0.00027927
-15.005	0.000276716
-14.6486	0.000280362
-14.1947	0.000285005
-14.0701	0.000281143
-13.9685	0.00027384
-13.9523	0.000272678
-13.8672	0.000275178
-13.8672	0.000275178
-13.37	0.000269725
-12.939	0.000266064
-12.7548	0.0002645
-12.5835	0.000267001
-12.4382	0.000271087
-12.408	0.000271938
-11.5925	0.00027256
-11.5373	0.000272661
-11.5297	0.000272656
-11.5268	0.000272607
-11.3311	0.000269278
-11.1647	0.000266501
-11.1552	0.000266486
-11.1358	0.000266455
-10.2566	0.000265971
-10.0774	0.000267418
-10.005	0.000267639
-9.78317	0.000268314
-9.16957	0.000252222
-8.95657	0.000254214
-8.82033	0.000260291
-8.51861	0.000273748
-8.17303	0.00028001
-7.93393	0.000273807
-7.77206	0.000269608
-7.01352	0.000258128
-6.83543	0.000258694
-6.66161	0.000259357
-6.38262	0.000257951
-6.21405	0.000257102
-5.6703	0.000257933
-5.11666	0.000253621
-4.87012	0.000255796
-4.82392	0.000256204
-4.73732	0.000255885
-4.70358	0.000255214
-4.67839	0.000254713
-3.97788	0.00025445
-3.83544	0.000255066
-3.70254	0.000255297
-3.5064	0.000250011
-3.44875	0.000248144
-3.41482	0.000247045
-2.47193	0.000253735
-2.37319	0.000255721
-2.12175	0.00025796
-2.05728	0.000258534
-1.48688	0.000250965
-1.17424	0.000248496
-1.00679	0.000257632
-0.786081	0.00026675
-0.324635	0.000285813
0	0.000308172
)
